# energy(eV) alpha
0.000000000000000000e+00 0.000000000000000000e+00
2.110000000000000070e-02 3.340674922110598577e-01
4.209999999999999853e-02 1.294234812475705709e+00
6.320000000000000617e-02 2.943382318948163601e+00
8.419999999999999707e-02 5.254120014844305686e+00
1.053000000000000047e-01 8.237100421561201813e+00
1.262999999999999956e-01 1.176148084738147226e+01
1.474000000000000032e-01 1.605752610379103018e+01
1.683999999999999941e-01 2.084445569729603775e+01
1.895000000000000018e-01 2.645082383966730433e+01
2.104999999999999927e-01 3.271675658570205059e+01
2.316000000000000003e-01 3.965260001155977676e+01
2.525999999999999912e-01 4.723359720743863477e+01
2.736999999999999988e-01 5.549464905715668550e+01
2.947000000000000175e-01 6.439579772050771567e+01
3.158000000000000251e-01 7.397865399457437263e+01
3.367999999999999883e-01 8.450190246410902262e+01
3.578999999999999959e-01 9.576749293170223609e+01
3.789000000000000146e-01 1.073362196742086070e+02
4.000000000000000222e-01 1.203186572233606029e+02
4.209999999999999853e-01 1.336391236294016664e+02
4.420999999999999930e-01 1.476575590935465527e+02
4.631000000000000116e-01 1.627832899328105611e+02
4.842000000000000193e-01 1.781986672551880986e+02
5.051999999999999824e-01 1.952127096095267973e+02
5.262999999999999901e-01 2.120367144887312918e+02
5.473000000000000087e-01 2.305292392915098674e+02
5.684000000000000163e-01 2.493089021574522519e+02
5.894000000000000350e-01 2.692846181757913655e+02
6.105000000000000426e-01 2.900689651338627186e+02
6.314999999999999503e-01 3.115515028850750241e+02
6.525999999999999579e-01 3.344306111570522830e+02
6.735999999999999766e-01 3.586755807423178339e+02
6.946999999999999842e-01 3.824988188661940853e+02
7.157000000000000028e-01 4.089908755950221462e+02
7.368000000000000105e-01 4.356821218613998212e+02
7.578000000000000291e-01 4.631546598356197251e+02
7.789000000000000368e-01 4.922009710592760712e+02
7.999000000000000554e-01 5.220237641152034485e+02
8.209999999999999520e-01 5.542272330813719918e+02
8.419999999999999707e-01 5.873024115834731447e+02
8.630999999999999783e-01 6.205382311385016010e+02
8.840999999999999970e-01 6.561866145049865509e+02
9.052000000000000046e-01 6.928399101676200189e+02
9.262000000000000233e-01 7.311621759113392045e+02
9.473000000000000309e-01 7.713739194639791776e+02
9.683000000000000496e-01 8.116635549818869322e+02
9.893999999999999462e-01 8.547592145637728436e+02
1.010399999999999965e+00 9.005716548523059828e+02
1.031500000000000083e+00 9.466279074330212779e+02
1.052499999999999991e+00 9.955555977603252131e+02
1.073600000000000110e+00 1.046632722440987209e+03
1.094600000000000017e+00 1.098734254043544979e+03
1.115699999999999914e+00 1.153025407766306898e+03
1.136800000000000033e+00 1.210529169564252470e+03
1.157799999999999940e+00 1.271249654805843647e+03
1.178900000000000059e+00 1.334386610765703608e+03
1.199899999999999967e+00 1.399742046589297388e+03
1.221000000000000085e+00 1.468740318137542317e+03
1.241999999999999993e+00 1.541221020927647942e+03
1.263099999999999890e+00 1.618592815154914206e+03
1.284100000000000019e+00 1.699645223555819030e+03
1.305199999999999916e+00 1.784743909601989117e+03
1.326200000000000045e+00 1.874862869481868302e+03
1.347299999999999942e+00 1.972751064460361931e+03
1.368300000000000072e+00 2.074800003109813133e+03
1.389399999999999968e+00 2.185039586085649262e+03
1.410400000000000098e+00 2.304589051818645203e+03
1.431499999999999995e+00 2.434059835163915068e+03
1.452499999999999902e+00 2.576013699259710393e+03
1.473600000000000021e+00 2.733701962772526258e+03
1.494599999999999929e+00 2.908458869078847329e+03
1.515700000000000047e+00 3.103879431371894043e+03
1.536699999999999955e+00 3.326928024832820938e+03
1.557800000000000074e+00 3.578755559088280279e+03
1.578799999999999981e+00 3.870834536586114609e+03
1.599900000000000100e+00 4.200731350099133124e+03
1.620900000000000007e+00 4.574747765949602581e+03
1.641999999999999904e+00 4.991872431367882200e+03
1.663000000000000034e+00 5.444275710418610288e+03
1.684099999999999930e+00 5.919118836875625675e+03
1.705100000000000060e+00 6.400194153781907517e+03
1.726199999999999957e+00 6.862677834979850559e+03
1.747200000000000086e+00 7.288260059675802950e+03
1.768299999999999983e+00 7.662141549931012378e+03
1.789299999999999891e+00 7.977987919114760189e+03
1.810400000000000009e+00 8.243098840645450764e+03
1.831399999999999917e+00 8.478040333662776902e+03
1.852500000000000036e+00 8.713827302579573370e+03
1.873499999999999943e+00 8.984280394235400308e+03
1.894600000000000062e+00 9.331638287694691826e+03
1.915599999999999969e+00 9.789468376497021382e+03
1.936700000000000088e+00 1.038628523220045463e+04
1.957699999999999996e+00 1.114458218048291747e+04
1.978799999999999892e+00 1.207473267255900100e+04
1.999800000000000022e+00 1.317194769996325158e+04
2.020900000000000141e+00 1.442051356474233944e+04
2.041900000000000048e+00 1.579448430674249539e+04
2.063000000000000167e+00 1.725963484618035727e+04
2.084000000000000075e+00 1.877045259754328072e+04
2.105100000000000193e+00 2.029115608778864771e+04
2.126100000000000101e+00 2.177728069110025899e+04
2.147200000000000220e+00 2.320590377705259016e+04
2.168200000000000127e+00 2.453305267653602277e+04
2.189299999999999802e+00 2.572693230160360690e+04
2.210300000000000153e+00 2.674187997360869122e+04
2.231399999999999828e+00 2.754729794750873407e+04
2.252499999999999947e+00 2.811119961686001625e+04
2.273499999999999854e+00 2.842498868587242396e+04
2.294599999999999973e+00 2.852867584545734644e+04
2.315599999999999881e+00 2.849214028617508666e+04
2.336699999999999999e+00 2.842621599326737851e+04
2.357699999999999907e+00 2.846472351992487165e+04
2.378800000000000026e+00 2.875059724227142578e+04
2.399799999999999933e+00 2.941031073490902781e+04
2.420900000000000052e+00 3.057424871314029951e+04
2.441899999999999959e+00 3.231863524248311296e+04
2.463000000000000078e+00 3.471038080490836728e+04
2.483999999999999986e+00 3.776960360337116435e+04
2.505100000000000104e+00 4.148942941181124479e+04
2.526100000000000012e+00 4.580304525360910338e+04
2.547200000000000131e+00 5.061250967634346307e+04
2.568200000000000038e+00 5.576484840243193321e+04
2.589300000000000157e+00 6.108613900490747619e+04
2.610300000000000065e+00 6.636709634039494267e+04
2.631400000000000183e+00 7.141781980468197435e+04
2.652400000000000091e+00 7.605763966692100803e+04
2.673500000000000210e+00 8.015900219866022235e+04
2.694500000000000117e+00 8.363789641879526607e+04
2.715599999999999792e+00 8.650540450273726310e+04
2.736600000000000144e+00 8.882018677352846134e+04
2.757699999999999818e+00 9.073699144834584149e+04
2.778700000000000170e+00 9.244242192368542601e+04
2.799799999999999844e+00 9.418253393994369253e+04
2.820800000000000196e+00 9.617399868538008013e+04
2.841899999999999871e+00 9.864606864155478252e+04
2.862899999999999778e+00 1.017491605596372392e+05
2.883999999999999897e+00 1.055968676075219555e+05
2.904999999999999805e+00 1.102186105603763863e+05
2.926099999999999923e+00 1.155951714686892083e+05
2.947099999999999831e+00 1.216301240203050547e+05
2.968199999999999950e+00 1.282112829888886045e+05
2.989199999999999857e+00 1.351739442374897480e+05
3.010299999999999976e+00 1.423571433085829485e+05
3.031299999999999883e+00 1.495631367313718365e+05
3.052400000000000002e+00 1.566196991302669630e+05
3.073399999999999910e+00 1.633455613674360502e+05
3.094500000000000028e+00 1.695933629067245929e+05
3.115499999999999936e+00 1.752426415176213195e+05
3.136600000000000055e+00 1.802578617662730685e+05
3.157599999999999962e+00 1.846401478219022683e+05
3.178700000000000081e+00 1.884888514991675038e+05
3.199699999999999989e+00 1.919138513938589022e+05
3.220800000000000107e+00 1.950789187618753349e+05
3.241800000000000015e+00 1.981242095199320465e+05
3.262900000000000134e+00 2.011889065021287824e+05
3.283900000000000041e+00 2.043723748749188671e+05
3.305000000000000160e+00 2.077886517673191556e+05
3.326000000000000068e+00 2.115157668386249570e+05
3.347100000000000186e+00 2.156489168280178274e+05
3.368199999999999861e+00 2.202301569265968574e+05
3.389200000000000212e+00 2.252763163890161959e+05
3.410299999999999887e+00 2.307636160888987069e+05
3.431299999999999795e+00 2.365927740268692432e+05
3.452399999999999913e+00 2.426626328956877114e+05
3.473399999999999821e+00 2.488228326966042223e+05
3.494499999999999940e+00 2.549936081806858128e+05
3.515499999999999847e+00 2.610899027746271749e+05
3.536599999999999966e+00 2.671226982353751082e+05
3.557599999999999874e+00 2.731004150300364126e+05
3.578699999999999992e+00 2.791000008366340189e+05
3.599699999999999900e+00 2.851457789519428625e+05
3.620800000000000018e+00 2.912746982895373949e+05
3.641799999999999926e+00 2.974244590188894072e+05
3.662900000000000045e+00 3.035509989422736107e+05
3.683899999999999952e+00 3.095241340071639861e+05
3.705000000000000071e+00 3.152519523916504113e+05
3.725999999999999979e+00 3.206221278119056369e+05
3.747100000000000097e+00 3.255867798509600689e+05
3.768100000000000005e+00 3.301131322160666459e+05
3.789200000000000124e+00 3.342324803856250946e+05
3.810200000000000031e+00 3.379702356749916798e+05
3.831300000000000150e+00 3.413998854311369942e+05
3.852300000000000058e+00 3.445616463767266832e+05
3.873400000000000176e+00 3.475351070199743262e+05
3.894400000000000084e+00 3.503705536190103740e+05
3.915500000000000203e+00 3.531474072963570361e+05
3.936500000000000110e+00 3.559342725359874312e+05
3.957599999999999785e+00 3.588379542110661860e+05
3.978600000000000136e+00 3.619501176240894129e+05
3.999699999999999811e+00 3.654138216166213970e+05
4.020699999999999719e+00 3.693471148015752551e+05
4.041800000000000281e+00 3.739167456526582246e+05
4.062800000000000189e+00 3.792323371696669492e+05
4.083899999999999864e+00 3.854005124851613655e+05
4.104899999999999771e+00 3.924082582291425206e+05
4.126000000000000334e+00 4.002153945131623186e+05
4.147000000000000242e+00 4.086370131662150961e+05
4.168099999999999916e+00 4.174647434867273550e+05
4.189099999999999824e+00 4.264005038507141289e+05
4.210200000000000387e+00 4.352169005327907507e+05
4.231200000000000294e+00 4.436845517828436568e+05
4.252299999999999969e+00 4.516828439228026546e+05
4.273299999999999876e+00 4.591368961539968732e+05
4.294400000000000439e+00 4.660708726083505317e+05
4.315400000000000347e+00 4.725133236864060163e+05
4.336500000000000021e+00 4.785315273232596810e+05
4.357499999999999929e+00 4.841374010127671063e+05
4.378599999999999604e+00 4.893560362712154747e+05
4.399600000000000399e+00 4.941557146898568026e+05
4.420700000000000074e+00 4.985260094765748945e+05
4.441699999999999982e+00 5.024167437539750827e+05
4.462799999999999656e+00 5.058712504181205295e+05
4.483900000000000219e+00 5.089046030976360198e+05
4.504900000000000126e+00 5.115805756979426951e+05
4.525999999999999801e+00 5.140088315872260719e+05
4.546999999999999709e+00 5.162910598093791050e+05
4.568100000000000271e+00 5.185462249572440051e+05
4.589100000000000179e+00 5.208725870753864874e+05
4.610199999999999854e+00 5.233580406186275650e+05
4.631199999999999761e+00 5.260124345529411221e+05
4.652300000000000324e+00 5.288831258517727256e+05
4.673300000000000232e+00 5.319165083768038312e+05
4.694399999999999906e+00 5.350982096816431731e+05
4.715399999999999814e+00 5.383302150975720724e+05
4.736500000000000377e+00 5.415912159409855958e+05
4.757500000000000284e+00 5.447921423556949012e+05
4.778599999999999959e+00 5.479151384766983101e+05
4.799599999999999866e+00 5.508874861975497333e+05
4.820700000000000429e+00 5.537176932734824950e+05
4.841700000000000337e+00 5.563561498360460391e+05
4.862800000000000011e+00 5.588206854299474508e+05
4.883799999999999919e+00 5.610955003735796781e+05
4.904899999999999594e+00 5.631940869802917587e+05
4.925900000000000389e+00 5.650990221195160411e+05
4.947000000000000064e+00 5.668184326603239169e+05
4.967999999999999972e+00 5.683376210102010518e+05
4.989099999999999646e+00 5.696600428543639136e+05
5.010100000000000442e+00 5.707346365873832256e+05
5.031200000000000117e+00 5.715812120971934637e+05
5.052200000000000024e+00 5.721562010993500007e+05
5.073299999999999699e+00 5.724895126540237106e+05
5.094299999999999606e+00 5.725723780734458705e+05
5.115400000000000169e+00 5.724741670565597015e+05
5.136400000000000077e+00 5.722151380237616831e+05
5.157499999999999751e+00 5.718873785081919050e+05
5.178499999999999659e+00 5.715410372414980084e+05
5.199600000000000222e+00 5.712410284718911862e+05
5.220600000000000129e+00 5.710030451233817730e+05
5.241699999999999804e+00 5.708557740702951560e+05
5.262699999999999712e+00 5.707318887647072552e+05
5.283800000000000274e+00 5.706189245070744073e+05
5.304800000000000182e+00 5.703892022116255248e+05
5.325899999999999856e+00 5.700142234747406328e+05
5.346899999999999764e+00 5.693831832194857998e+05
5.368000000000000327e+00 5.685034702803781256e+05
5.389000000000000234e+00 5.673413222772469744e+05
5.410099999999999909e+00 5.659376093867897289e+05
5.431099999999999817e+00 5.643333906813567737e+05
5.452200000000000379e+00 5.626093762833983637e+05
5.473200000000000287e+00 5.608230199471638771e+05
5.494299999999999962e+00 5.590314549264515517e+05
5.515299999999999869e+00 5.572526918995270971e+05
5.536400000000000432e+00 5.555430287503981963e+05
5.557400000000000340e+00 5.538568505929018138e+05
5.578500000000000014e+00 5.522171814508960815e+05
5.599599999999999689e+00 5.506000227690433385e+05
5.620599999999999596e+00 5.489863175888308324e+05
5.641700000000000159e+00 5.473622563144898741e+05
5.662700000000000067e+00 5.457170042445558356e+05
5.683799999999999741e+00 5.440372470752383815e+05
5.704799999999999649e+00 5.422971982981353067e+05
5.725900000000000212e+00 5.405107976016200846e+05
5.746900000000000119e+00 5.386375716980602592e+05
5.767999999999999794e+00 5.366986397371654166e+05
5.788999999999999702e+00 5.346589059388529276e+05
5.810100000000000264e+00 5.325479860430824338e+05
5.831100000000000172e+00 5.303638103880829876e+05
5.852199999999999847e+00 5.281258086113772588e+05
5.873199999999999754e+00 5.258448646658037324e+05
5.894300000000000317e+00 5.235794418615979957e+05
5.915300000000000225e+00 5.213197406976294587e+05
5.936399999999999899e+00 5.191248459782055579e+05
5.957399999999999807e+00 5.170130645749742980e+05
5.978500000000000369e+00 5.150277923593514715e+05
5.999500000000000277e+00 5.131671668064885889e+05
6.020599999999999952e+00 5.115168959285933524e+05
6.041599999999999859e+00 5.100774113229463692e+05
6.062700000000000422e+00 5.089082357998310472e+05
6.083700000000000330e+00 5.080527641569843399e+05
6.104800000000000004e+00 5.075628717479941552e+05
6.125799999999999912e+00 5.074631602097212453e+05
6.146899999999999586e+00 5.077763829394215718e+05
6.167900000000000382e+00 5.085097080502197496e+05
6.189000000000000057e+00 5.096522304652126622e+05
6.209999999999999964e+00 5.111728398743930156e+05
6.231099999999999639e+00 5.130239689208778436e+05
6.252100000000000435e+00 5.151755480515781674e+05
6.273200000000000109e+00 5.175791954746904667e+05
6.294200000000000017e+00 5.201785766579441261e+05
6.315299999999999692e+00 5.229373089341959567e+05
6.336299999999999599e+00 5.258003418009782908e+05
6.357400000000000162e+00 5.287414833446290577e+05
6.378400000000000070e+00 5.316877656155254226e+05
6.399499999999999744e+00 5.346460369815347949e+05
6.420499999999999652e+00 5.375599205608698539e+05
6.441600000000000215e+00 5.404354016588662053e+05
6.462600000000000122e+00 5.432766519512196537e+05
6.483699999999999797e+00 5.460732602226113668e+05
6.504699999999999704e+00 5.488636486190017313e+05
6.525800000000000267e+00 5.516813302660339978e+05
6.546800000000000175e+00 5.545346220468903193e+05
6.567899999999999849e+00 5.574920904854311375e+05
6.588899999999999757e+00 5.605304446309930645e+05
6.610000000000000320e+00 5.636824296278100228e+05
6.631000000000000227e+00 5.669154368330411380e+05
6.652099999999999902e+00 5.702013097302624956e+05
6.673099999999999810e+00 5.734843579276251839e+05
6.694200000000000372e+00 5.767517399535732111e+05
6.715300000000000047e+00 5.799272985683166189e+05
6.736299999999999955e+00 5.829729286245723488e+05
6.757399999999999629e+00 5.859059991987949470e+05
6.778400000000000425e+00 5.886862349204139318e+05
6.799500000000000099e+00 5.913780965254474431e+05
6.820500000000000007e+00 5.939887714967551874e+05
6.841599999999999682e+00 5.965786724643789930e+05
6.862599999999999589e+00 5.991783065458026249e+05
6.883700000000000152e+00 6.018473100035159150e+05
6.904700000000000060e+00 6.045875939977782546e+05
6.925799999999999734e+00 6.074212378430492245e+05
6.946799999999999642e+00 6.103392087855410064e+05
6.967900000000000205e+00 6.133239470123361098e+05
6.988900000000000112e+00 6.163616625327354996e+05
7.009999999999999787e+00 6.194604986390989507e+05
7.030999999999999694e+00 6.226211661149150459e+05
7.052100000000000257e+00 6.258841725983448559e+05
7.073100000000000165e+00 6.292901970006795600e+05
7.094199999999999839e+00 6.329265937416763045e+05
7.115199999999999747e+00 6.368383974888656521e+05
7.136300000000000310e+00 6.410900467593715293e+05
7.157300000000000217e+00 6.457127782073459821e+05
7.178399999999999892e+00 6.507610712839676999e+05
7.199399999999999800e+00 6.561953618116482394e+05
7.220500000000000362e+00 6.620126057370627532e+05
7.241500000000000270e+00 6.681504047660804354e+05
7.262599999999999945e+00 6.745823280596515397e+05
7.283599999999999852e+00 6.812280702628031140e+05
7.304700000000000415e+00 6.880550187606239924e+05
7.325700000000000323e+00 6.950098951688696397e+05
7.346799999999999997e+00 7.020684357608655700e+05
7.367799999999999905e+00 7.092201222811307525e+05
7.388899999999999579e+00 7.164638376644462114e+05
7.409900000000000375e+00 7.237896025290959515e+05
7.431000000000000050e+00 7.312064471264948370e+05
7.451999999999999957e+00 7.386939519282421097e+05
7.473099999999999632e+00 7.462629440527410479e+05
7.494100000000000428e+00 7.538797783115050988e+05
7.515200000000000102e+00 7.615780454710894264e+05
7.536200000000000010e+00 7.693262325913012028e+05
7.557299999999999685e+00 7.771767653168095276e+05
7.578299999999999592e+00 7.851007946476730285e+05
7.599400000000000155e+00 7.931802919868343743e+05
7.620400000000000063e+00 8.013862633878249908e+05
7.641499999999999737e+00 8.097371446381687419e+05
7.662499999999999645e+00 8.182086224086707225e+05
7.683600000000000207e+00 8.267911000656438991e+05
7.704600000000000115e+00 8.354339465822599595e+05
7.725699999999999790e+00 8.440863081041745609e+05
7.746699999999999697e+00 8.526992550644039875e+05
7.767800000000000260e+00 8.612280983655316522e+05
7.788800000000000168e+00 8.696249638687893748e+05
7.809899999999999842e+00 8.778383374149948359e+05
7.831000000000000405e+00 8.858478552211499773e+05
7.852000000000000313e+00 8.935714001958743902e+05
7.873099999999999987e+00 9.009785042639913736e+05
7.894099999999999895e+00 9.079830189735046588e+05
7.915199999999999569e+00 9.145473847805624828e+05
7.936200000000000365e+00 9.205848999505192041e+05
7.957300000000000040e+00 9.260716780370551860e+05
7.978299999999999947e+00 9.309277490485658636e+05
7.999399999999999622e+00 9.351625588741390966e+05
8.020400000000000418e+00 9.387786157717985334e+05
8.041499999999999204e+00 9.418000348931149347e+05
8.062500000000000000e+00 9.442687251558612334e+05
8.083600000000000563e+00 9.463174384215263417e+05
8.104599999999999582e+00 9.480361324812426465e+05
8.125700000000000145e+00 9.495860291884019971e+05
8.146699999999999164e+00 9.510986915318891406e+05
8.167799999999999727e+00 9.527460856381598860e+05
8.188800000000000523e+00 9.546132978064486524e+05
8.209899999999999309e+00 9.568207495637823595e+05
8.230900000000000105e+00 9.593968067572902655e+05
8.252000000000000668e+00 9.623542135613322025e+05
8.272999999999999687e+00 9.656167268337109126e+05
8.294100000000000250e+00 9.691208427066459553e+05
8.315099999999999270e+00 9.726899074917273829e+05
8.336199999999999832e+00 9.762137214326346293e+05
8.357200000000000628e+00 9.794869206702403026e+05
8.378299999999999415e+00 9.823832175252223387e+05
