# energy(eV) alpha
0.000000000000000000e+00 0.000000000000000000e+00
2.149999999999999828e-02 1.404439487437360856e-01
4.290000000000000063e-02 6.515334775185316341e-01
6.439999999999999891e-02 1.396871337984099126e+00
8.590000000000000413e-02 2.508700058673063449e+00
1.073000000000000065e-01 3.830467017384421524e+00
1.287999999999999978e-01 5.708240890934760614e+00
1.502999999999999892e-01 7.634402163206886804e+00
1.718000000000000083e-01 1.020601683459240228e+01
1.932000000000000106e-01 1.272775701272373716e+01
2.147000000000000020e-01 1.598913000744146018e+01
2.361999999999999933e-01 1.912130569142882663e+01
2.575999999999999956e-01 2.277782584795029308e+01
2.791000000000000147e-01 2.678290862997437216e+01
3.005999999999999783e-01 3.111104147754287297e+01
3.220000000000000084e-01 3.574666353287162224e+01
3.435000000000000275e-01 4.071842220637817178e+01
3.649999999999999911e-01 4.640121844934031259e+01
3.864000000000000212e-01 5.202231869134171660e+01
4.078999999999999848e-01 5.798272939368106194e+01
4.294000000000000039e-01 6.426365585372798250e+01
4.507999999999999785e-01 7.132846571929376012e+01
4.722999999999999976e-01 7.826666476381758741e+01
4.938000000000000167e-01 8.605468331881895949e+01
5.152999999999999803e-01 9.366235781666638616e+01
5.366999999999999549e-01 1.021387270716100488e+02
5.582000000000000295e-01 1.104046412994416215e+02
5.796999999999999931e-01 1.195944603400844102e+02
6.010999999999999677e-01 1.284968876328050271e+02
6.226000000000000423e-01 1.390897842216305378e+02
6.441000000000000059e-01 1.493732169415636406e+02
6.654999999999999805e-01 1.599937606602160542e+02
6.870000000000000551e-01 1.709971272582251061e+02
7.085000000000000187e-01 1.823603390825689985e+02
7.298999999999999932e-01 1.948577016490203562e+02
7.513999999999999568e-01 2.069572299074170871e+02
7.729000000000000314e-01 2.194144034297517010e+02
7.943000000000000060e-01 2.330813131310279402e+02
8.157999999999999696e-01 2.479945821985862437e+02
8.373000000000000442e-01 2.615843644347876875e+02
8.588000000000000078e-01 2.764807424601137882e+02
8.801999999999999824e-01 2.926178739577478609e+02
9.016999999999999460e-01 3.083302038823516682e+02
9.232000000000000206e-01 3.253429748745322172e+02
9.445999999999999952e-01 3.418265377063704022e+02
9.660999999999999588e-01 3.597023309333089855e+02
9.876000000000000334e-01 3.780707863923070704e+02
1.008999999999999897e+00 3.968321308257087026e+02
1.030499999999999972e+00 4.171477177210046534e+02
1.052000000000000046e+00 4.367749579617230324e+02
1.073399999999999910e+00 4.579721717025360590e+02
1.094899999999999984e+00 4.796866788324849153e+02
1.116400000000000059e+00 5.030322721017885783e+02
1.137799999999999923e+00 5.256593217220020051e+02
1.159299999999999997e+00 5.500005491265720821e+02
1.180800000000000072e+00 5.761609186832323530e+02
1.202299999999999924e+00 6.027956502261632750e+02
1.223700000000000010e+00 6.273762584877554218e+02
1.245200000000000085e+00 6.550547585714149363e+02
1.266699999999999937e+00 6.846612959978842810e+02
1.288100000000000023e+00 7.147275002122390788e+02
1.309600000000000097e+00 7.468797703474439231e+02
1.331099999999999950e+00 7.796275147857791126e+02
1.352500000000000036e+00 8.129345559475768823e+02
1.374000000000000110e+00 8.483237001519574960e+02
1.395499999999999963e+00 8.858308927764251166e+02
1.416900000000000048e+00 9.224729876373185107e+02
1.438399999999999901e+00 9.628117518362709006e+02
1.459899999999999975e+00 1.003851147101160109e+03
1.481300000000000061e+00 1.048706240566125416e+03
1.502799999999999914e+00 1.095958306106613918e+03
1.524299999999999988e+00 1.142379526679208766e+03
1.545800000000000063e+00 1.194466808232469020e+03
1.567199999999999926e+00 1.248991864540237430e+03
1.588700000000000001e+00 1.311135711671797480e+03
1.610200000000000076e+00 1.370981865969717319e+03
1.631599999999999939e+00 1.438540154196103686e+03
1.653100000000000014e+00 1.509031992306014217e+03
1.674600000000000088e+00 1.582455900426132075e+03
1.695999999999999952e+00 1.660421856423761938e+03
1.717500000000000027e+00 1.741662702146935771e+03
1.739000000000000101e+00 1.827720994673839641e+03
1.760399999999999965e+00 1.913223411574706915e+03
1.781900000000000039e+00 2.001965902430416691e+03
1.803399999999999892e+00 2.099453239457203836e+03
1.824899999999999967e+00 2.202104539377822221e+03
1.846300000000000052e+00 2.311907115308533776e+03
1.867799999999999905e+00 2.430987557217376434e+03
1.889299999999999979e+00 2.555799387207998279e+03
1.910700000000000065e+00 2.691959392287546052e+03
1.932199999999999918e+00 2.834236509274272521e+03
1.953699999999999992e+00 2.980490912698731790e+03
1.975100000000000078e+00 3.138674519220385264e+03
1.996599999999999930e+00 3.301292426366040218e+03
2.018100000000000005e+00 3.474167792941563675e+03
2.039499999999999869e+00 3.657450123686170173e+03
2.060999999999999943e+00 3.851402834100048949e+03
2.082500000000000018e+00 4.066627417329787932e+03
2.103899999999999881e+00 4.296892552854521455e+03
2.125399999999999956e+00 4.551347272417224303e+03
2.146900000000000031e+00 4.830086564615704447e+03
2.168400000000000105e+00 5.144442001500222432e+03
2.189799999999999969e+00 5.492360660730489144e+03
2.211300000000000043e+00 5.890589431373176922e+03
2.232800000000000118e+00 6.337459911350352741e+03
2.254199999999999982e+00 6.842752799418994073e+03
2.275700000000000056e+00 7.406213687794511316e+03
2.297200000000000131e+00 8.021927143646792501e+03
2.318599999999999994e+00 8.683980386596138487e+03
2.340100000000000069e+00 9.389436216857015097e+03
2.361600000000000144e+00 1.013608177552969755e+04
2.383000000000000007e+00 1.093097041333708148e+04
2.404500000000000082e+00 1.177955952106838413e+04
2.426000000000000156e+00 1.271501597723029408e+04
2.447400000000000020e+00 1.375447931481597152e+04
2.468900000000000095e+00 1.492717064084750928e+04
2.490400000000000169e+00 1.625457444787290842e+04
2.511899999999999800e+00 1.775773255462602174e+04
2.533300000000000107e+00 1.943633538607931769e+04
2.554800000000000182e+00 2.129011700461055443e+04
2.576299999999999812e+00 2.330544833947981897e+04
2.597700000000000120e+00 2.545544670288142515e+04
2.619200000000000195e+00 2.771257430642661711e+04
2.640699999999999825e+00 3.004027892595957019e+04
2.662100000000000133e+00 3.240701829048774016e+04
2.683600000000000207e+00 3.477592645346059726e+04
2.705099999999999838e+00 3.712291266427308437e+04
2.726500000000000146e+00 3.940938813132992800e+04
2.748000000000000220e+00 4.161973705533373140e+04
2.769499999999999851e+00 4.372820340630610008e+04
2.790900000000000158e+00 4.569183622622003895e+04
2.812399999999999789e+00 4.748816004864629213e+04
2.833899999999999864e+00 4.907485227570548886e+04
2.855399999999999938e+00 5.043670655784450355e+04
2.876799999999999802e+00 5.157758432651749899e+04
2.898299999999999876e+00 5.252727775715492317e+04
2.919799999999999951e+00 5.336769347776908398e+04
2.941199999999999815e+00 5.417363488424388197e+04
2.962699999999999889e+00 5.503842420781287365e+04
2.984199999999999964e+00 5.602327217878998636e+04
3.005599999999999827e+00 5.713001630022642348e+04
3.027099999999999902e+00 5.832441986323592573e+04
3.048599999999999977e+00 5.949639133179805503e+04
3.069999999999999840e+00 6.053146723348779051e+04
3.091499999999999915e+00 6.130386785973369842e+04
3.112999999999999989e+00 6.172507167381683394e+04
3.134500000000000064e+00 6.176768960791130667e+04
3.155899999999999928e+00 6.146328837845088128e+04
3.177400000000000002e+00 6.091533384626393672e+04
3.198900000000000077e+00 6.027157343025662703e+04
3.220299999999999940e+00 5.970045482890814310e+04
3.241800000000000015e+00 5.938994308297089447e+04
3.263300000000000090e+00 5.949798516423504771e+04
3.284699999999999953e+00 6.016862769556193234e+04
3.306200000000000028e+00 6.150768903732302715e+04
3.327700000000000102e+00 6.357312841316559206e+04
3.349099999999999966e+00 6.637995141950664402e+04
3.370600000000000041e+00 6.988039688936994935e+04
3.392100000000000115e+00 7.397929147637302231e+04
3.413499999999999979e+00 7.853169798053729755e+04
3.435000000000000053e+00 8.336742488823406165e+04
3.456500000000000128e+00 8.828768173797085183e+04
3.478000000000000203e+00 9.311424356436084781e+04
3.499400000000000066e+00 9.770058199935592711e+04
3.520900000000000141e+00 1.019577463961989270e+05
3.542400000000000215e+00 1.058533048764939158e+05
3.563800000000000079e+00 1.094203389966570103e+05
3.585300000000000153e+00 1.127420639098719694e+05
3.606799999999999784e+00 1.159311824413897266e+05
3.628200000000000092e+00 1.190942805595401878e+05
3.649700000000000166e+00 1.223301790164581616e+05
3.671199999999999797e+00 1.256862134856814082e+05
3.692600000000000104e+00 1.291679273913418874e+05
3.714100000000000179e+00 1.327479142340032558e+05
3.735599999999999810e+00 1.363594820780511654e+05
3.757000000000000117e+00 1.399193623284607893e+05
3.778500000000000192e+00 1.433677896828001831e+05
3.799999999999999822e+00 1.466443137807817839e+05
3.821499999999999897e+00 1.497360330884506402e+05
3.842900000000000205e+00 1.526535937682237418e+05
3.864399999999999835e+00 1.554565329856185708e+05
3.885899999999999910e+00 1.582300928909441282e+05
3.907300000000000217e+00 1.610680800437871658e+05
3.928799999999999848e+00 1.640945089099046309e+05
3.950299999999999923e+00 1.674262191723115975e+05
3.971699999999999786e+00 1.711277516019827162e+05
3.993199999999999861e+00 1.752312682500549417e+05
4.014700000000000379e+00 1.796885718838618195e+05
4.036100000000000243e+00 1.843716343595696671e+05
4.057599999999999874e+00 1.891073821230428293e+05
4.079100000000000392e+00 1.936745583102318924e+05
4.100500000000000256e+00 1.978704352675491537e+05
4.121999999999999886e+00 2.015234672103575140e+05
4.143500000000000405e+00 2.045240203454504954e+05
4.165000000000000036e+00 2.068363469296015392e+05
4.186399999999999899e+00 2.084718779953605263e+05
4.207900000000000418e+00 2.095097360888057156e+05
4.229400000000000048e+00 2.100592270508759830e+05
4.250799999999999912e+00 2.102470363892340974e+05
4.272300000000000431e+00 2.102141209118745755e+05
4.293800000000000061e+00 2.101125787269957364e+05
4.315199999999999925e+00 2.100698270381776674e+05
4.336700000000000443e+00 2.102237101180092432e+05
4.358200000000000074e+00 2.106448257926465303e+05
4.379599999999999937e+00 2.113815438203483354e+05
4.401099999999999568e+00 2.124214508154119831e+05
4.422600000000000087e+00 2.137109156899454538e+05
4.443999999999999950e+00 2.151551204546140216e+05
4.465499999999999581e+00 2.166731925043076917e+05
4.487000000000000099e+00 2.181814276223355264e+05
4.508499999999999730e+00 2.196467446492115560e+05
4.529899999999999594e+00 2.210592323296682443e+05
4.551400000000000112e+00 2.224667892507362412e+05
4.572899999999999743e+00 2.239011881472948880e+05
4.594299999999999606e+00 2.253945160962565278e+05
4.615800000000000125e+00 2.269888669122302963e+05
4.637299999999999756e+00 2.286864285017813090e+05
4.658699999999999619e+00 2.304910178939385805e+05
4.680200000000000138e+00 2.324056389219957346e+05
4.701699999999999768e+00 2.344422119930415938e+05
4.723099999999999632e+00 2.366190788153665198e+05
4.744600000000000151e+00 2.389748347510204185e+05
4.766099999999999781e+00 2.415460151992407918e+05
4.787600000000000300e+00 2.443787730909194797e+05
4.809000000000000163e+00 2.474916151592063252e+05
4.830499999999999794e+00 2.508791001781180094e+05
4.852000000000000313e+00 2.545305273202407698e+05
4.873400000000000176e+00 2.583897235589441843e+05
4.894899999999999807e+00 2.624111370174084441e+05
4.916400000000000325e+00 2.665477121368399821e+05
4.937800000000000189e+00 2.707114974968232564e+05
4.959299999999999820e+00 2.748517674222719506e+05
4.980800000000000338e+00 2.788733006448087981e+05
5.002200000000000202e+00 2.826897835241265711e+05
5.023699999999999832e+00 2.862411161152311834e+05
5.045200000000000351e+00 2.894735065229108441e+05
5.066600000000000215e+00 2.923887768171316129e+05
5.088099999999999845e+00 2.950744194893295062e+05
5.109600000000000364e+00 2.976369256179871154e+05
5.131099999999999994e+00 3.001979622125750757e+05
5.152499999999999858e+00 3.028603578997694422e+05
5.174000000000000377e+00 3.056914810323567945e+05
5.195500000000000007e+00 3.086696711165224551e+05
5.216899999999999871e+00 3.117390300665250397e+05
5.238400000000000389e+00 3.148302899081334472e+05
5.259900000000000020e+00 3.178480600514268153e+05
5.281299999999999883e+00 3.207145091673679999e+05
5.302800000000000402e+00 3.233704096827913891e+05
5.324300000000000033e+00 3.257385847709057853e+05
5.345699999999999896e+00 3.277505258802731987e+05
5.367200000000000415e+00 3.293458310963116237e+05
5.388700000000000045e+00 3.304526911559263826e+05
5.410099999999999909e+00 3.310071926851214957e+05
5.431600000000000428e+00 3.309851305483807810e+05
5.453100000000000058e+00 3.303860062718566624e+05
5.474599999999999689e+00 3.292037360147361760e+05
5.496000000000000441e+00 3.274250185701542068e+05
5.517500000000000071e+00 3.250657283504546504e+05
5.538999999999999702e+00 3.221555323563036509e+05
5.560399999999999565e+00 3.187597538930100854e+05
5.581900000000000084e+00 3.149819106539282366e+05
5.603399999999999714e+00 3.110043276555897901e+05
5.624799999999999578e+00 3.070182390076532029e+05
5.646300000000000097e+00 3.032634919967525639e+05
5.667799999999999727e+00 2.999365695058323327e+05
5.689199999999999591e+00 2.972302175029740320e+05
5.710700000000000109e+00 2.952652506935818237e+05
5.732199999999999740e+00 2.941203394880732521e+05
5.753599999999999604e+00 2.938060945530035533e+05
5.775100000000000122e+00 2.942610678749889485e+05
5.796599999999999753e+00 2.953922794050528319e+05
5.818100000000000271e+00 2.970474524486970040e+05
5.839500000000000135e+00 2.990750178001493914e+05
5.860999999999999766e+00 3.013401087011764175e+05
5.882500000000000284e+00 3.037154446133423480e+05
5.903900000000000148e+00 3.060794261548301438e+05
5.925399999999999778e+00 3.084248900373408687e+05
5.946900000000000297e+00 3.107087480207079789e+05
5.968300000000000161e+00 3.129456252642148174e+05
5.989799999999999791e+00 3.151639126493027434e+05
6.011300000000000310e+00 3.174269058317485615e+05
6.032700000000000173e+00 3.197368312914837734e+05
6.054199999999999804e+00 3.221683320409296430e+05
6.075700000000000323e+00 3.247164425723449676e+05
6.097199999999999953e+00 3.274205785742335138e+05
6.118599999999999817e+00 3.302717907532654935e+05
6.140100000000000335e+00 3.332504722649673931e+05
6.161599999999999966e+00 3.362724788320614025e+05
6.182999999999999829e+00 3.392239000016360078e+05
6.204500000000000348e+00 3.419776208262352739e+05
6.225999999999999979e+00 3.443641936467246269e+05
6.247399999999999842e+00 3.462615854193436098e+05
6.268900000000000361e+00 3.475531646221764968e+05
6.290399999999999991e+00 3.482232449162193225e+05
6.311799999999999855e+00 3.482694032526047085e+05
6.333300000000000374e+00 3.477895648818211630e+05
6.354800000000000004e+00 3.469042173866098165e+05
6.376199999999999868e+00 3.457400974546950310e+05
6.397700000000000387e+00 3.444713120876865578e+05
6.419200000000000017e+00 3.432351296571365092e+05
6.440699999999999648e+00 3.421482352387751453e+05
6.462100000000000399e+00 3.413167772101283190e+05
6.483600000000000030e+00 3.408292817758637830e+05
6.505099999999999660e+00 3.407429768728205818e+05
6.526500000000000412e+00 3.411013706384615507e+05
6.548000000000000043e+00 3.419613070825195173e+05
6.569499999999999673e+00 3.433244298084813054e+05
6.590900000000000425e+00 3.451934971530106850e+05
6.612400000000000055e+00 3.475530458351755515e+05
6.633899999999999686e+00 3.503853302313085296e+05
6.655300000000000438e+00 3.535957537297934759e+05
6.676800000000000068e+00 3.571398593223228236e+05
6.698299999999999699e+00 3.609235613161292276e+05
6.719699999999999562e+00 3.648627787325598183e+05
6.741200000000000081e+00 3.688897000099366414e+05
6.762699999999999712e+00 3.729538881944635068e+05
6.784200000000000230e+00 3.770137381609000731e+05
6.805600000000000094e+00 3.810458924730220460e+05
6.827099999999999724e+00 3.850566402874028427e+05
6.848600000000000243e+00 3.890459217883737874e+05
6.870000000000000107e+00 3.930331211037362809e+05
6.891499999999999737e+00 3.970017974569324288e+05
6.913000000000000256e+00 4.009884450291406247e+05
6.934400000000000119e+00 4.049419178210518439e+05
6.955899999999999750e+00 4.088456840684101917e+05
6.977400000000000269e+00 4.126817239962786552e+05
6.998800000000000132e+00 4.163620571943833493e+05
7.020299999999999763e+00 4.199329167611833545e+05
7.041800000000000281e+00 4.233474389741034247e+05
7.063200000000000145e+00 4.266637769804236013e+05
7.084699999999999775e+00 4.299843299261739594e+05
7.106200000000000294e+00 4.333494703920093016e+05
7.127699999999999925e+00 4.368606190268585924e+05
7.149099999999999788e+00 4.405579882541149855e+05
7.170600000000000307e+00 4.444343698461243766e+05
7.192099999999999937e+00 4.484628068029000424e+05
7.213499999999999801e+00 4.525475812997031026e+05
7.235000000000000320e+00 4.566033044276798610e+05
7.256499999999999950e+00 4.605347600458499510e+05
7.277899999999999814e+00 4.642285976263222401e+05
7.299400000000000333e+00 4.676851221471523750e+05
7.320899999999999963e+00 4.708897812506226473e+05
7.342299999999999827e+00 4.738609903356067953e+05
7.363800000000000345e+00 4.766990473094166373e+05
7.385299999999999976e+00 4.794604496972286142e+05
7.406699999999999839e+00 4.822252208521155990e+05
7.428200000000000358e+00 4.850675200464052614e+05
7.449699999999999989e+00 4.880121321568718995e+05
7.471199999999999619e+00 4.910539559614036116e+05
7.492600000000000371e+00 4.941554278286332265e+05
7.514100000000000001e+00 4.972851464406847372e+05
7.535599999999999632e+00 5.004142469674400054e+05
7.557000000000000384e+00 5.034692683021870325e+05
7.578500000000000014e+00 5.064288008478141273e+05
7.599999999999999645e+00 5.092719734080472845e+05
7.621400000000000396e+00 5.120045449167416082e+05
7.642900000000000027e+00 5.146162265047810506e+05
7.664399999999999658e+00 5.170869760429269518e+05
7.685800000000000409e+00 5.194066265099371667e+05
7.707300000000000040e+00 5.215745790534089319e+05
7.728799999999999670e+00 5.235487277732056682e+05
7.750300000000000189e+00 5.253047383732253220e+05
7.771700000000000053e+00 5.268085518529260298e+05
7.793199999999999683e+00 5.280332084262012504e+05
7.814700000000000202e+00 5.289483029533266090e+05
7.836100000000000065e+00 5.295140130057866918e+05
7.857599999999999696e+00 5.297249145336417714e+05
7.879100000000000215e+00 5.295706466151893837e+05
7.900500000000000078e+00 5.290339177664864110e+05
7.921999999999999709e+00 5.281080890104296850e+05
7.943500000000000227e+00 5.268498073666227283e+05
7.964900000000000091e+00 5.252580074248415185e+05
7.986399999999999721e+00 5.234265697929871385e+05
8.007899999999999352e+00 5.214176001804434345e+05
8.029299999999999216e+00 5.193258629227817873e+05
8.050800000000000622e+00 5.172656353915079380e+05
8.072300000000000253e+00 5.153731672204108909e+05
8.093799999999999883e+00 5.137105222147624008e+05
8.115199999999999747e+00 5.123951327632928733e+05
8.136699999999999378e+00 5.115043164372798055e+05
8.158200000000000784e+00 5.110871321678849054e+05
8.179600000000000648e+00 5.111903053423173842e+05
8.201100000000000279e+00 5.118370957951121964e+05
8.222599999999999909e+00 5.130627741443206905e+05
8.243999999999999773e+00 5.148286050382900867e+05
8.265499999999999403e+00 5.171472633957304060e+05
8.287000000000000810e+00 5.199543831063684192e+05
8.308400000000000674e+00 5.231626761433533393e+05
8.329900000000000304e+00 5.267333828241694719e+05
8.351399999999999935e+00 5.305505617703642929e+05
8.372799999999999798e+00 5.345270452926337020e+05
8.394299999999999429e+00 5.385620513867652044e+05
8.415800000000000836e+00 5.425631778155805077e+05
8.437300000000000466e+00 5.464799491545964265e+05
8.458700000000000330e+00 5.502072276814908255e+05
8.480199999999999960e+00 5.537192313551068073e+05
8.501699999999999591e+00 5.569522096482102061e+05
8.523099999999999454e+00 5.598947348718759604e+05
8.544600000000000861e+00 5.625237980604004115e+05
