# energy(eV) alpha
0.000000000000000000e+00 0.000000000000000000e+00
2.100000000000000130e-02 4.817470979526046748e-01
4.200000000000000261e-02 1.999701167154445569e+00
6.300000000000000044e-02 4.444752672341859778e+00
8.400000000000000522e-02 7.852968752234045446e+00
1.050999999999999990e-01 1.241713964078004118e+01
1.260999999999999899e-01 1.778828946692066637e+01
1.471000000000000085e-01 2.424843997880536861e+01
1.680999999999999994e-01 3.170317162724829174e+01
1.890999999999999903e-01 4.015486446041857960e+01
2.101000000000000090e-01 4.978085077972283301e+01
2.310999999999999999e-01 6.044738111433142791e+01
2.520999999999999908e-01 7.191332527432415134e+01
2.731999999999999984e-01 8.488535327997699653e+01
2.942000000000000171e-01 9.861959624324394724e+01
3.151999999999999802e-01 1.136637389925701456e+02
3.361999999999999988e-01 1.297485754264844218e+02
3.572000000000000175e-01 1.472084868777618851e+02
3.781999999999999806e-01 1.657598657230102219e+02
3.991999999999999993e-01 1.861030701651571917e+02
4.202000000000000179e-01 2.072160167985443877e+02
4.411999999999999811e-01 2.290647396294332339e+02
4.622999999999999887e-01 2.532548858754672381e+02
4.833000000000000074e-01 2.785771524315954935e+02
5.042999999999999705e-01 3.050723397591454500e+02
5.252999999999999892e-01 3.331848390961342261e+02
5.463000000000000078e-01 3.629965421282534521e+02
5.673000000000000265e-01 3.945285187581657738e+02
5.883000000000000451e-01 4.278212919285134035e+02
6.092999999999999527e-01 4.629291526338190010e+02
6.303999999999999604e-01 5.000075212552740709e+02
6.513999999999999790e-01 5.383552253512407333e+02
6.723999999999999977e-01 5.791931367791994489e+02
6.934000000000000163e-01 6.232395562375677400e+02
7.144000000000000350e-01 6.687853401486277107e+02
7.354000000000000536e-01 7.171128106652504357e+02
7.563999999999999613e-01 7.683070568413186265e+02
7.773999999999999799e-01 8.224327200648544931e+02
7.984999999999999876e-01 8.796838058953184145e+02
8.195000000000000062e-01 9.407180904861684212e+02
8.405000000000000249e-01 1.004970700750997821e+03
8.615000000000000435e-01 1.074046646978837316e+03
8.824999999999999512e-01 1.146625911322975071e+03
9.034999999999999698e-01 1.226656034443703675e+03
9.244999999999999885e-01 1.311300975129636072e+03
9.455000000000000071e-01 1.403072399150994215e+03
9.665000000000000258e-01 1.503092700792870119e+03
9.876000000000000334e-01 1.612735529952309662e+03
1.008599999999999941e+00 1.733658369457008348e+03
1.029600000000000071e+00 1.867400930764444865e+03
1.050599999999999978e+00 2.017104872071088494e+03
1.071600000000000108e+00 2.187934822405884915e+03
1.092600000000000016e+00 2.382614400019438108e+03
1.113599999999999923e+00 2.608622368430436836e+03
1.134600000000000053e+00 2.870142733128001510e+03
1.155699999999999950e+00 3.174657352217300740e+03
1.176700000000000079e+00 3.528502562275821674e+03
1.197699999999999987e+00 3.934976281626024956e+03
1.218699999999999894e+00 4.391289240087373400e+03
1.239700000000000024e+00 4.891415559307199146e+03
1.260699999999999932e+00 5.419352684442330428e+03
1.281700000000000061e+00 5.950802242129660044e+03
1.302699999999999969e+00 6.457250470790466352e+03
1.323700000000000099e+00 6.909502628820329846e+03
1.344799999999999995e+00 7.282087342937261383e+03
1.365799999999999903e+00 7.559880934288293247e+03
1.386800000000000033e+00 7.744667443489262951e+03
1.407799999999999940e+00 7.854319021957434416e+03
1.428800000000000070e+00 7.915727563172588816e+03
1.449799999999999978e+00 7.970998172402735690e+03
1.470800000000000107e+00 8.059862369548335664e+03
1.491800000000000015e+00 8.218336369922017184e+03
1.512899999999999912e+00 8.481939608714821588e+03
1.533900000000000041e+00 8.877122833786610499e+03
1.554899999999999949e+00 9.421711339189378123e+03
1.575900000000000079e+00 1.013043501200201899e+04
1.596899999999999986e+00 1.101250799564201407e+04
1.617899999999999894e+00 1.207587241976370569e+04
1.638900000000000023e+00 1.331584460392722394e+04
1.659899999999999931e+00 1.473438672876364399e+04
1.681000000000000050e+00 1.631485121528935815e+04
1.701999999999999957e+00 1.804538312981462877e+04
1.723000000000000087e+00 1.990419079771911856e+04
1.743999999999999995e+00 2.186305243682389846e+04
1.764999999999999902e+00 2.388334959272879132e+04
1.786000000000000032e+00 2.591482986017135045e+04
1.806999999999999940e+00 2.789974230423221525e+04
1.828000000000000069e+00 2.976766371005994733e+04
1.848999999999999977e+00 3.143733378614885078e+04
1.870100000000000096e+00 3.283905330791857705e+04
1.891100000000000003e+00 3.391490503303532751e+04
1.912099999999999911e+00 3.463995495599821879e+04
1.933100000000000041e+00 3.503310580531132291e+04
1.954099999999999948e+00 3.516781578835507389e+04
1.975100000000000078e+00 3.515289617346312298e+04
1.996099999999999985e+00 3.512469569370534009e+04
2.017100000000000115e+00 3.523067522358343558e+04
2.038199999999999790e+00 3.559592170534453908e+04
2.059200000000000141e+00 3.630976497172332165e+04
2.080200000000000049e+00 3.743075146845858399e+04
2.101199999999999957e+00 3.898726706776483479e+04
2.122199999999999864e+00 4.098243698134787701e+04
2.143200000000000216e+00 4.340645397820369544e+04
2.164200000000000124e+00 4.626238003479270265e+04
2.185200000000000031e+00 4.954824829749574565e+04
2.206199999999999939e+00 5.326687059158528427e+04
2.227300000000000058e+00 5.741879255356642534e+04
2.248299999999999965e+00 6.196852284530876932e+04
2.269299999999999873e+00 6.685183964742925309e+04
2.290299999999999780e+00 7.194959493259347801e+04
2.311300000000000132e+00 7.709580889387529169e+04
2.332300000000000040e+00 8.208926018167634902e+04
2.353299999999999947e+00 8.671198737134614203e+04
2.374299999999999855e+00 9.077896917045822192e+04
2.395399999999999974e+00 9.416660841141811397e+04
2.416399999999999881e+00 9.684003936210239772e+04
2.437399999999999789e+00 9.887824623037858692e+04
2.458400000000000141e+00 1.004674138871871546e+05
2.479400000000000048e+00 1.018546415575485007e+05
2.500399999999999956e+00 1.033074308064948564e+05
2.521399999999999864e+00 1.050594273047522875e+05
2.542400000000000215e+00 1.072749005520575884e+05
2.563499999999999890e+00 1.100498937282152474e+05
2.584499999999999797e+00 1.133959802829798427e+05
2.605500000000000149e+00 1.172991647334857844e+05
2.626500000000000057e+00 1.217402603435644414e+05
2.647499999999999964e+00 1.267024021449203137e+05
2.668499999999999872e+00 1.321805524570138077e+05
2.689499999999999780e+00 1.381786736170272343e+05
2.710500000000000131e+00 1.446791431695076462e+05
2.731500000000000039e+00 1.516407117794108053e+05
2.752600000000000158e+00 1.589735872279018222e+05
2.773600000000000065e+00 1.665315394645157212e+05
2.794599999999999973e+00 1.741581666074887908e+05
2.815599999999999881e+00 1.816810634471960657e+05
2.836599999999999788e+00 1.889486952461386099e+05
2.857600000000000140e+00 1.958336322448084829e+05
2.878600000000000048e+00 2.022609366772061912e+05
2.899599999999999955e+00 2.081919502395132731e+05
2.920700000000000074e+00 2.136392021180732409e+05
2.941699999999999982e+00 2.186127809761581011e+05
2.962699999999999889e+00 2.231720184257467045e+05
2.983699999999999797e+00 2.273608775755826791e+05
3.004700000000000149e+00 2.312183236946971447e+05
3.025700000000000056e+00 2.347767769212031562e+05
3.046699999999999964e+00 2.380561400152307760e+05
3.067699999999999871e+00 2.410766809125920699e+05
3.088699999999999779e+00 2.438787252873938996e+05
3.109799999999999898e+00 2.465357865678100206e+05
3.130799999999999805e+00 2.491265504635830002e+05
3.151800000000000157e+00 2.517755365760542045e+05
3.172800000000000065e+00 2.545962119529041520e+05
3.193799999999999972e+00 2.576790893380246998e+05
3.214799999999999880e+00 2.610779374845241255e+05
3.235799999999999788e+00 2.648082399543996435e+05
3.256800000000000139e+00 2.688552419583719457e+05
3.277899999999999814e+00 2.731948313840530463e+05
3.298900000000000166e+00 2.777647400651216158e+05
3.319900000000000073e+00 2.825232652521143318e+05
3.340899999999999981e+00 2.874285303821302950e+05
3.361899999999999888e+00 2.924553407491169055e+05
3.382899999999999796e+00 2.975996087275724858e+05
3.403900000000000148e+00 3.028703103622054914e+05
3.424900000000000055e+00 3.082941537292004214e+05
3.446000000000000174e+00 3.138761792151564150e+05
3.467000000000000082e+00 3.195687015578188584e+05
3.487999999999999989e+00 3.252936452857070835e+05
3.508999999999999897e+00 3.309109747991744080e+05
3.529999999999999805e+00 3.362635711362434668e+05
3.551000000000000156e+00 3.412027758396303398e+05
3.572000000000000064e+00 3.456327459811474546e+05
3.592999999999999972e+00 3.495479322995535913e+05
3.613999999999999879e+00 3.530175912494044751e+05
3.635099999999999998e+00 3.562039540487213526e+05
3.656099999999999905e+00 3.592560598167010467e+05
3.677099999999999813e+00 3.623487499435616774e+05
3.698100000000000165e+00 3.655944627455140580e+05
3.719100000000000072e+00 3.690495157930300920e+05
3.740099999999999980e+00 3.726866345459704171e+05
3.761099999999999888e+00 3.764410189514528029e+05
3.782099999999999795e+00 3.802001724525562604e+05
3.803199999999999914e+00 3.838385732279876247e+05
3.824199999999999822e+00 3.871879814897755277e+05
3.845200000000000173e+00 3.901291342426086194e+05
3.866200000000000081e+00 3.925415683167378302e+05
3.887199999999999989e+00 3.943513611441418179e+05
3.908199999999999896e+00 3.955167285180481267e+05
3.929199999999999804e+00 3.960554984726311523e+05
3.950200000000000156e+00 3.960291017826334573e+05
3.971200000000000063e+00 3.955445069212410599e+05
3.992300000000000182e+00 3.947717181988944649e+05
4.013300000000000090e+00 3.938382275171257206e+05
4.034299999999999997e+00 3.929122758878241293e+05
4.055299999999999905e+00 3.921131431375459651e+05
4.076299999999999812e+00 3.915190983957098215e+05
4.097299999999999720e+00 3.911493876167580602e+05
4.118299999999999628e+00 3.909972650708635920e+05
4.139300000000000423e+00 3.910166648789968458e+05
4.160400000000000098e+00 3.912091648777359514e+05
4.181400000000000006e+00 3.915680838915132917e+05
4.202399999999999913e+00 3.921672897406253032e+05
4.223399999999999821e+00 3.931172139778172714e+05
4.244399999999999729e+00 3.945519686089623719e+05
4.265399999999999636e+00 3.966208443676604074e+05
4.286400000000000432e+00 3.994378551494345884e+05
4.307400000000000340e+00 4.030858172510356526e+05
4.328500000000000014e+00 4.076026384663665085e+05
4.349499999999999922e+00 4.129600400853343308e+05
4.370499999999999829e+00 4.191452910454689409e+05
4.391499999999999737e+00 4.261147370177530684e+05
4.412499999999999645e+00 4.338100685852422030e+05
4.433500000000000441e+00 4.421607053548942204e+05
4.454500000000000348e+00 4.510489105238947668e+05
4.475500000000000256e+00 4.603458262053259532e+05
4.496500000000000163e+00 4.698707585325188120e+05
4.517599999999999838e+00 4.794470472583284136e+05
4.538599999999999746e+00 4.888589055240428424e+05
4.559599999999999653e+00 4.979360183739837375e+05
4.580599999999999561e+00 5.065280858686583233e+05
4.601600000000000357e+00 5.145061495151412091e+05
4.622600000000000264e+00 5.217890413103794563e+05
4.643600000000000172e+00 5.283202978696017526e+05
4.664600000000000080e+00 5.340484694088540273e+05
4.685699999999999754e+00 5.389544118779598502e+05
4.706699999999999662e+00 5.429983203545635333e+05
4.727699999999999569e+00 5.461917252249395242e+05
4.748700000000000365e+00 5.485683369147576159e+05
4.769700000000000273e+00 5.501812196298907511e+05
4.790700000000000180e+00 5.511317196117424173e+05
4.811700000000000088e+00 5.515397301622624509e+05
4.832699999999999996e+00 5.515284901827344438e+05
4.853699999999999903e+00 5.512511084957000567e+05
4.874799999999999578e+00 5.508574914670166327e+05
4.895800000000000374e+00 5.504255700325175421e+05
4.916800000000000281e+00 5.500513898587798467e+05
4.937800000000000189e+00 5.497870556361436611e+05
4.958800000000000097e+00 5.496567140674055554e+05
4.979800000000000004e+00 5.496553612508373335e+05
5.000799999999999912e+00 5.497759846815802157e+05
5.021799999999999820e+00 5.500171847189280670e+05
5.042900000000000382e+00 5.503770316100276541e+05
5.063900000000000290e+00 5.508346264666094212e+05
5.084900000000000198e+00 5.513866611536348937e+05
5.105900000000000105e+00 5.519971612461745972e+05
5.126900000000000013e+00 5.526206725984566147e+05
5.147899999999999920e+00 5.531964185002456652e+05
5.168899999999999828e+00 5.536475321097385604e+05
5.189899999999999736e+00 5.539083887932490325e+05
5.211000000000000298e+00 5.539335209124333924e+05
5.232000000000000206e+00 5.536733741103745997e+05
5.253000000000000114e+00 5.531379485652833246e+05
5.274000000000000021e+00 5.523792434619879350e+05
5.294999999999999929e+00 5.514574890450855019e+05
5.315999999999999837e+00 5.504425284983908059e+05
5.336999999999999744e+00 5.494021017937716097e+05
5.357999999999999652e+00 5.483639202490746975e+05
5.378999999999999559e+00 5.473476489576991880e+05
5.400100000000000122e+00 5.463290876636644825e+05
5.421100000000000030e+00 5.452415578754629241e+05
5.442099999999999937e+00 5.440506032885989407e+05
5.463099999999999845e+00 5.427202090368256904e+05
5.484099999999999753e+00 5.412182351376974257e+05
5.505099999999999660e+00 5.395564068355290219e+05
5.526099999999999568e+00 5.377516443440011935e+05
5.547100000000000364e+00 5.358511899668031838e+05
5.568200000000000038e+00 5.339110331299267709e+05
5.589199999999999946e+00 5.319790022537844488e+05
5.610199999999999854e+00 5.301208289361293428e+05
5.631199999999999761e+00 5.284083792619690066e+05
5.652199999999999669e+00 5.268740833066381747e+05
5.673199999999999577e+00 5.255570740792584838e+05
5.694200000000000372e+00 5.244813893755831523e+05
5.715200000000000280e+00 5.236349280968291569e+05
5.736200000000000188e+00 5.229852967930349405e+05
5.757299999999999862e+00 5.224702274177146610e+05
5.778299999999999770e+00 5.220237101062047295e+05
5.799299999999999677e+00 5.215478840248596971e+05
5.820299999999999585e+00 5.209899826717550750e+05
5.841300000000000381e+00 5.202918067079170141e+05
5.862300000000000288e+00 5.194302355614903499e+05
5.883300000000000196e+00 5.184260932914876030e+05
5.904300000000000104e+00 5.173598575101134484e+05
5.925399999999999778e+00 5.163245815765210427e+05
5.946399999999999686e+00 5.154402894504594733e+05
5.967399999999999594e+00 5.148231416711408528e+05
5.988400000000000389e+00 5.145826952669469756e+05
6.009400000000000297e+00 5.147851142529043718e+05
6.030400000000000205e+00 5.154725641974944738e+05
6.051400000000000112e+00 5.166185300267608836e+05
6.072400000000000020e+00 5.181683390597241814e+05
6.093499999999999694e+00 5.200492062608346459e+05
6.114499999999999602e+00 5.221337187087644706e+05
6.135500000000000398e+00 5.243693656655446393e+05
6.156500000000000306e+00 5.266926811063765781e+05
6.177500000000000213e+00 5.290666875393063528e+05
6.198500000000000121e+00 5.314723737215362489e+05
6.219500000000000028e+00 5.339528714873535791e+05
6.240499999999999936e+00 5.365173674241477856e+05
6.261499999999999844e+00 5.391836207314637722e+05
6.282600000000000406e+00 5.419590729192179861e+05
6.303600000000000314e+00 5.448248644027840346e+05
6.324600000000000222e+00 5.477242421961749205e+05
6.345600000000000129e+00 5.505826401081877993e+05
6.366600000000000037e+00 5.533116138081863755e+05
6.387599999999999945e+00 5.558250312970018713e+05
6.408599999999999852e+00 5.580190905544846319e+05
6.429599999999999760e+00 5.598638543810821138e+05
6.450700000000000323e+00 5.613201112658315105e+05
6.471700000000000230e+00 5.623974292350672185e+05
6.492700000000000138e+00 5.631097716474070912e+05
6.513700000000000045e+00 5.635435188607362797e+05
6.534699999999999953e+00 5.637442815386025468e+05
6.555699999999999861e+00 5.637244062131280079e+05
6.576699999999999768e+00 5.635458967339763185e+05
6.597699999999999676e+00 5.631895877313446254e+05
6.618699999999999584e+00 5.626897263248942327e+05
6.639800000000000146e+00 5.620443713759062812e+05
6.660800000000000054e+00 5.612859885516688228e+05
6.681799999999999962e+00 5.604802458324744366e+05
6.702799999999999869e+00 5.597288850741406204e+05
6.723799999999999777e+00 5.591326578024077462e+05
6.744799999999999685e+00 5.588131437920051394e+05
6.765799999999999592e+00 5.588882392487977631e+05
6.786800000000000388e+00 5.594175082082535373e+05
6.807900000000000063e+00 5.604461411131159402e+05
6.828899999999999970e+00 5.619424396212814609e+05
6.849899999999999878e+00 5.638858095279500121e+05
6.870899999999999785e+00 5.661919263069303706e+05
6.891899999999999693e+00 5.687909374949353514e+05
6.912899999999999601e+00 5.716219200602454366e+05
6.933900000000000396e+00 5.746289779747094726e+05
6.954900000000000304e+00 5.778127654212670168e+05
6.975999999999999979e+00 5.811939410513030598e+05
6.996999999999999886e+00 5.847892736405431060e+05
7.017999999999999794e+00 5.886606536404521903e+05
7.038999999999999702e+00 5.928704613601355813e+05
7.059999999999999609e+00 5.974604437101228395e+05
7.081000000000000405e+00 6.024793173376769992e+05
7.102000000000000313e+00 6.079507851010946324e+05
7.123000000000000220e+00 6.138868098274238873e+05
7.144000000000000128e+00 6.202921367091332795e+05
7.165099999999999802e+00 6.271672232127960306e+05
7.186099999999999710e+00 6.344466569627333665e+05
7.207099999999999618e+00 6.420861505610806635e+05
7.228100000000000414e+00 6.500398271358688362e+05
7.249100000000000321e+00 6.581865447575139115e+05
7.270100000000000229e+00 6.664277442620089278e+05
7.291100000000000136e+00 6.746635290486044250e+05
7.312100000000000044e+00 6.828117236397793749e+05
7.333199999999999719e+00 6.907752679783677449e+05
7.354199999999999626e+00 6.985263676093680551e+05
7.375200000000000422e+00 7.060562902499124175e+05
7.396200000000000330e+00 7.133729833875121549e+05
7.417200000000000237e+00 7.205052098162771435e+05
7.438200000000000145e+00 7.275118406297710026e+05
7.459200000000000053e+00 7.344697349388352595e+05
7.480199999999999960e+00 7.414219969723586692e+05
7.501199999999999868e+00 7.484542964972119080e+05
7.522300000000000431e+00 7.556437592305088183e+05
7.543300000000000338e+00 7.630018602758528432e+05
7.564300000000000246e+00 7.706047659886904294e+05
7.585300000000000153e+00 7.784752134687667713e+05
7.606300000000000061e+00 7.866196842924156226e+05
7.627299999999999969e+00 7.950538498341295635e+05
7.648299999999999876e+00 8.037862425184869207e+05
7.669299999999999784e+00 8.127915065457330784e+05
7.690400000000000347e+00 8.220849300356069580e+05
7.711400000000000254e+00 8.316340847971364856e+05
7.732400000000000162e+00 8.414413415163207101e+05
7.753400000000000070e+00 8.514499365148219513e+05
7.774399999999999977e+00 8.616315945147321327e+05
7.795399999999999885e+00 8.719173489699402126e+05
7.816399999999999793e+00 8.821827487204163335e+05
7.837399999999999700e+00 8.922993817400691332e+05
7.858500000000000263e+00 9.021311762542644283e+05
7.879500000000000171e+00 9.114826985868072370e+05
7.900500000000000078e+00 9.202049875989514403e+05
7.921499999999999986e+00 9.281935780343981460e+05
7.942499999999999893e+00 9.353178427295102738e+05
7.963499999999999801e+00 9.415181132325209910e+05
7.984499999999999709e+00 9.467700941415145062e+05
8.005499999999999616e+00 9.510952157733807107e+05
8.026500000000000412e+00 9.545399716617491795e+05
8.047599999999999199e+00 9.571841135564747965e+05
8.068599999999999994e+00 9.591568815542474622e+05
8.089600000000000790e+00 9.606146250418707496e+05
8.110599999999999810e+00 9.617587777350967517e+05
8.131600000000000605e+00 9.628166890240329085e+05
8.152599999999999625e+00 9.639876184717277065e+05
8.173600000000000421e+00 9.654666886334858136e+05
8.194599999999999440e+00 9.674015656901217299e+05
8.215700000000000003e+00 9.699003855449882103e+05
8.236700000000000799e+00 9.729595515543790534e+05
8.257699999999999818e+00 9.765393923576734960e+05
8.278700000000000614e+00 9.805703653153511696e+05
8.299699999999999633e+00 9.848902433910650434e+05
8.320700000000000429e+00 9.893423315010097576e+05
8.341699999999999449e+00 9.936793346026465297e+05
8.362700000000000244e+00 9.977190913675567135e+05
