# energy(eV) alpha
0.000000000000000000e+00 0.000000000000000000e+00
1.859999999999999848e-02 1.705383563496568333e-01
3.729999999999999982e-02 7.589471815768565888e-01
5.589999999999999830e-02 1.650310972546671140e+00
7.449999999999999678e-02 2.882762699702486220e+00
9.320000000000000506e-02 4.554242443888600889e+00
1.117999999999999966e-01 6.602281701108194234e+00
1.303999999999999881e-01 9.026515852787488470e+00
1.491000000000000103e-01 1.168803611586513114e+01
1.676999999999999880e-01 1.468336849223661034e+01
1.862999999999999934e-01 1.839432278883515082e+01
2.049999999999999878e-01 2.211850946355829706e+01
2.235999999999999932e-01 2.639551095823266635e+01
2.421999999999999986e-01 3.105360042869625659e+01
2.607999999999999763e-01 3.608389420082848886e+01
2.795000000000000262e-01 4.151045637119076304e+01
2.980999999999999761e-01 4.699708778817463894e+01
3.166999999999999815e-01 5.346871243585530920e+01
3.353999999999999759e-01 6.036204917488743149e+01
3.539999999999999813e-01 6.693957083075328285e+01
3.725999999999999868e-01 7.460107270083979358e+01
3.912999999999999812e-01 8.190961448059067607e+01
4.098999999999999866e-01 9.078535917840800096e+01
4.284999999999999920e-01 9.966179175970444248e+01
4.471999999999999864e-01 1.080746450005780588e+02
4.657999999999999918e-01 1.182186691591254686e+02
4.843999999999999972e-01 1.283039694366850370e+02
5.030999999999999917e-01 1.383154198106791739e+02
5.217000000000000526e-01 1.492231086614739297e+02
5.403000000000000025e-01 1.605120075488785858e+02
5.590000000000000524e-01 1.728167573524209786e+02
5.776000000000000023e-01 1.855350098141136925e+02
5.961999999999999522e-01 1.980745273784703784e+02
6.149000000000000021e-01 2.116899806968914675e+02
6.334999999999999520e-01 2.257104267168023171e+02
6.521000000000000130e-01 2.401367238286472912e+02
6.706999999999999629e-01 2.550334177568607572e+02
6.894000000000000128e-01 2.704042012045492243e+02
7.079999999999999627e-01 2.868831684741488175e+02
7.266000000000000236e-01 3.038208702257718983e+02
7.452999999999999625e-01 3.212826884872349069e+02
7.639000000000000234e-01 3.399476388190460625e+02
7.824999999999999734e-01 3.590905114292098119e+02
8.012000000000000233e-01 3.779944699720140306e+02
8.197999999999999732e-01 3.981441780926447791e+02
8.384000000000000341e-01 4.187677374614167434e+02
8.570999999999999730e-01 4.408216113051512934e+02
8.757000000000000339e-01 4.642349464909816561e+02
8.942999999999999838e-01 4.873163251002928860e+02
9.130000000000000338e-01 5.109819677573206604e+02
9.315999999999999837e-01 5.369596611018686190e+02
9.502000000000000446e-01 5.616476278228323054e+02
9.688999999999999835e-01 5.888326969035282445e+02
9.875000000000000444e-01 6.175677238114147940e+02
1.006099999999999994e+00 6.469207853469861220e+02
1.024799999999999933e+00 6.769251223839481781e+02
1.043400000000000105e+00 7.085841221368737024e+02
1.062000000000000055e+00 7.408576138307707879e+02
1.080699999999999994e+00 7.748980750009346821e+02
1.099299999999999944e+00 8.106696087738722554e+02
1.117899999999999894e+00 8.482649716993914808e+02
1.136500000000000066e+00 8.854583879142609248e+02
1.155200000000000005e+00 9.280302416522463318e+02
1.173799999999999955e+00 9.689865352523289630e+02
1.192399999999999904e+00 1.014316577738383785e+03
1.211100000000000065e+00 1.059354168400348271e+03
1.229700000000000015e+00 1.108778040374594866e+03
1.248299999999999965e+00 1.160374444075527890e+03
1.266999999999999904e+00 1.215483954403463713e+03
1.285600000000000076e+00 1.271496786653824756e+03
1.304200000000000026e+00 1.333628504666168965e+03
1.322899999999999965e+00 1.400947181330717285e+03
1.341499999999999915e+00 1.469303681881010334e+03
1.360100000000000087e+00 1.544261736151839614e+03
1.378800000000000026e+00 1.627436726638243954e+03
1.397399999999999975e+00 1.717379346602476289e+03
1.415999999999999925e+00 1.814480543954522773e+03
1.434700000000000086e+00 1.924673379317429180e+03
1.453300000000000036e+00 2.042349569192039098e+03
1.471899999999999986e+00 2.180754766683804974e+03
1.490599999999999925e+00 2.333415942920368707e+03
1.509200000000000097e+00 2.507748449818256177e+03
1.527800000000000047e+00 2.707403426979222786e+03
1.546499999999999986e+00 2.933492119559359708e+03
1.565099999999999936e+00 3.190782223426126166e+03
1.583700000000000108e+00 3.478983248680084216e+03
1.602300000000000058e+00 3.795889081588744830e+03
1.620999999999999996e+00 4.137837262875624219e+03
1.639599999999999946e+00 4.494166673959193758e+03
1.658199999999999896e+00 4.852532939454512416e+03
1.676900000000000057e+00 5.200464464694815433e+03
1.695500000000000007e+00 5.521968586285637684e+03
1.714099999999999957e+00 5.803116384395617388e+03
1.732799999999999896e+00 6.033980935008268716e+03
1.751400000000000068e+00 6.212131342629586470e+03
1.770000000000000018e+00 6.344035524081959920e+03
1.788699999999999957e+00 6.440441444334050175e+03
1.807299999999999907e+00 6.520020942761634615e+03
1.825900000000000079e+00 6.603547536843524540e+03
1.844600000000000017e+00 6.716165883203521844e+03
1.863199999999999967e+00 6.877632424397693285e+03
1.881799999999999917e+00 7.107350318615320248e+03
1.900500000000000078e+00 7.429331853033080733e+03
1.919100000000000028e+00 7.848709744342042541e+03
1.937699999999999978e+00 8.377555740854857504e+03
1.956399999999999917e+00 9.017261395086932680e+03
1.975000000000000089e+00 9.762372748530066019e+03
1.993600000000000039e+00 1.060139987277182991e+04
2.012199999999999989e+00 1.151803492369908236e+04
2.030899999999999928e+00 1.249222261493653605e+04
2.049500000000000099e+00 1.348999264009197759e+04
2.068099999999999827e+00 1.449654327999830093e+04
2.086800000000000210e+00 1.548491956550739997e+04
2.105399999999999938e+00 1.645222000705142636e+04
2.124000000000000110e+00 1.738549131740927987e+04
2.142700000000000049e+00 1.829163809218675669e+04
2.161300000000000221e+00 1.917619987923870576e+04
2.179899999999999949e+00 2.003755134051664572e+04
2.198599999999999888e+00 2.086441641675827123e+04
2.217200000000000060e+00 2.164249814835354846e+04
2.235799999999999788e+00 2.233662654767739514e+04
2.254500000000000171e+00 2.291768448679356879e+04
2.273099999999999898e+00 2.336279110839178975e+04
2.291700000000000070e+00 2.365152193754094696e+04
2.310400000000000009e+00 2.380014232546770290e+04
2.329000000000000181e+00 2.383452035411336328e+04
2.347599999999999909e+00 2.380583399326304789e+04
2.366299999999999848e+00 2.378199332367108946e+04
2.384900000000000020e+00 2.382275062905498999e+04
2.403500000000000192e+00 2.399518561331033197e+04
2.422200000000000131e+00 2.435871350046130465e+04
2.440799999999999859e+00 2.495594346096988374e+04
2.459400000000000031e+00 2.581686263075162060e+04
2.478000000000000203e+00 2.696264231006033879e+04
2.496700000000000141e+00 2.840421628418608452e+04
2.515299999999999869e+00 3.015217334402099368e+04
2.533900000000000041e+00 3.219416725093347486e+04
2.552599999999999980e+00 3.453416807562906615e+04
2.571200000000000152e+00 3.714428507487526076e+04
2.589799999999999880e+00 4.001355498674270348e+04
2.608499999999999819e+00 4.310975474483866856e+04
2.627099999999999991e+00 4.640199619195476407e+04
2.645700000000000163e+00 4.984592884797065199e+04
2.664400000000000102e+00 5.340201013974348461e+04
2.682999999999999829e+00 5.700756199276639381e+04
2.701600000000000001e+00 6.060162972751922644e+04
2.720299999999999940e+00 6.410128320907248417e+04
2.738900000000000112e+00 6.740397803384062718e+04
2.757499999999999840e+00 7.041556897222268162e+04
2.776199999999999779e+00 7.303996018213384377e+04
2.794799999999999951e+00 7.518094814158337249e+04
2.813400000000000123e+00 7.678066516041282739e+04
2.832100000000000062e+00 7.781638447354454547e+04
2.850699999999999790e+00 7.830585155098045652e+04
2.869299999999999962e+00 7.830483096334447328e+04
2.887999999999999901e+00 7.791869682579778600e+04
2.906600000000000072e+00 7.728203122891898965e+04
2.925199999999999800e+00 7.654079869683452125e+04
2.943799999999999972e+00 7.585833293275888718e+04
2.962499999999999911e+00 7.540244724784709979e+04
2.981100000000000083e+00 7.530725325930393592e+04
2.999699999999999811e+00 7.569882917671622999e+04
3.018400000000000194e+00 7.668718345026421594e+04
3.036999999999999922e+00 7.833618442789099936e+04
3.055600000000000094e+00 8.069147043930408836e+04
3.074300000000000033e+00 8.377370671365527960e+04
3.092900000000000205e+00 8.754620100286748493e+04
3.111499999999999932e+00 9.196553414204396540e+04
3.130199999999999871e+00 9.694298285135508922e+04
3.148800000000000043e+00 1.023675420835749392e+05
3.167400000000000215e+00 1.081138209152680211e+05
3.186100000000000154e+00 1.140361220079164050e+05
3.204699999999999882e+00 1.199824626863355952e+05
3.223300000000000054e+00 1.258158610979397345e+05
3.241999999999999993e+00 1.313951980595506029e+05
3.260600000000000165e+00 1.365919227839096275e+05
3.279199999999999893e+00 1.413077976782638580e+05
3.297899999999999832e+00 1.454578523566710064e+05
3.316500000000000004e+00 1.489832218731006142e+05
3.335100000000000176e+00 1.518660034047036024e+05
3.353699999999999903e+00 1.541246791693389241e+05
3.372399999999999842e+00 1.558298971422346367e+05
3.391000000000000014e+00 1.570583463267397310e+05
3.409600000000000186e+00 1.579477858118335425e+05
3.428300000000000125e+00 1.586276131228179729e+05
3.446899999999999853e+00 1.592253390724394412e+05
3.465500000000000025e+00 1.598546723195615632e+05
3.484199999999999964e+00 1.606008971445193456e+05
3.502800000000000136e+00 1.614981515776212036e+05
3.521399999999999864e+00 1.625762082694135897e+05
3.540099999999999802e+00 1.638415985327313829e+05
3.558699999999999974e+00 1.652821522537153214e+05
3.577300000000000146e+00 1.669070479962823738e+05
3.596000000000000085e+00 1.687282415226479934e+05
3.614599999999999813e+00 1.707669906018077163e+05
3.633199999999999985e+00 1.730765705144936219e+05
3.651899999999999924e+00 1.756903340184577100e+05
3.670500000000000096e+00 1.786478218260133581e+05
3.689099999999999824e+00 1.819797671654974401e+05
3.707800000000000207e+00 1.856951032803725975e+05
3.726399999999999935e+00 1.897712978116920276e+05
3.745000000000000107e+00 1.941620234063498501e+05
3.763700000000000045e+00 1.988073239279325644e+05
3.782300000000000217e+00 2.036024848311944224e+05
3.800899999999999945e+00 2.084443630268025154e+05
3.819500000000000117e+00 2.132106232346026227e+05
3.838200000000000056e+00 2.177900403718278976e+05
3.856799999999999784e+00 2.220750325770917407e+05
3.875399999999999956e+00 2.259692785844676255e+05
3.894099999999999895e+00 2.294227906619638670e+05
3.912700000000000067e+00 2.323907391487872228e+05
3.931299999999999795e+00 2.348810253194998950e+05
3.950000000000000178e+00 2.369255901739010587e+05
3.968599999999999905e+00 2.385536835994821449e+05
3.987200000000000077e+00 2.398591970363764849e+05
4.005899999999999572e+00 2.409125780662954785e+05
4.024499999999999744e+00 2.418119356272706063e+05
4.043099999999999916e+00 2.426438091684718675e+05
4.061799999999999855e+00 2.435160394356022589e+05
4.080400000000000027e+00 2.445140111847680237e+05
4.099000000000000199e+00 2.457245329416048189e+05
4.117700000000000138e+00 2.472458770125454757e+05
4.136300000000000310e+00 2.491270924228212098e+05
4.154899999999999594e+00 2.514382703175005445e+05
4.173600000000000421e+00 2.542066996898739599e+05
4.192199999999999704e+00 2.574250735815306252e+05
4.210799999999999876e+00 2.610618770192563534e+05
4.229499999999999815e+00 2.650708298854778404e+05
4.248099999999999987e+00 2.693426579256925615e+05
4.266700000000000159e+00 2.737700467088758596e+05
4.285300000000000331e+00 2.782160644694793154e+05
4.304000000000000270e+00 2.825542603896948276e+05
4.322600000000000442e+00 2.866436363686102559e+05
4.341199999999999726e+00 2.903782383481655270e+05
4.359899999999999665e+00 2.936892262304066680e+05
4.378499999999999837e+00 2.965352551324861124e+05
4.397100000000000009e+00 2.989188182096199016e+05
4.415799999999999947e+00 3.009061342921576579e+05
4.434400000000000119e+00 3.025524419375110301e+05
4.453000000000000291e+00 3.039539511266378686e+05
4.471700000000000230e+00 3.052255402139741345e+05
4.490300000000000402e+00 3.064351038803402917e+05
4.508899999999999686e+00 3.076598124063367140e+05
4.527599999999999625e+00 3.089479489319988643e+05
4.546199999999999797e+00 3.102967424614089541e+05
4.564799999999999969e+00 3.117289318003912922e+05
4.583499999999999908e+00 3.132059071645467775e+05
4.602100000000000080e+00 3.146826797534051002e+05
4.620700000000000252e+00 3.160912350462178583e+05
4.639400000000000190e+00 3.173985913523984491e+05
4.658000000000000362e+00 3.185107217014807393e+05
4.676599999999999646e+00 3.193919176264054258e+05
4.695199999999999818e+00 3.199814247491136775e+05
4.713899999999999757e+00 3.202586091785316821e+05
4.732499999999999929e+00 3.202028287715964834e+05
4.751100000000000101e+00 3.198498892824261566e+05
4.769800000000000040e+00 3.192493400146469357e+05
4.788400000000000212e+00 3.184639703860304435e+05
4.807000000000000384e+00 3.176028719578396413e+05
4.825700000000000323e+00 3.167824661193070933e+05
4.844299999999999606e+00 3.160881299590492272e+05
4.862899999999999778e+00 3.156504747733699623e+05
4.881599999999999717e+00 3.155660991609382327e+05
4.900199999999999889e+00 3.158896052879197523e+05
4.918800000000000061e+00 3.166534139427370974e+05
4.937500000000000000e+00 3.178657981247015414e+05
4.956100000000000172e+00 3.194751357207090477e+05
4.974700000000000344e+00 3.213938570568832802e+05
4.993400000000000283e+00 3.235561071510952897e+05
5.011999999999999567e+00 3.258248191113153007e+05
5.030599999999999739e+00 3.281103225452711922e+05
5.049299999999999677e+00 3.303185241162902676e+05
5.067899999999999849e+00 3.323867387208064902e+05
5.086500000000000021e+00 3.342964933185773552e+05
5.105199999999999960e+00 3.360440744014278171e+05
5.123800000000000132e+00 3.376545361527434434e+05
5.142400000000000304e+00 3.391760342887906590e+05
5.160999999999999588e+00 3.406519128423864604e+05
5.179700000000000415e+00 3.421400177427786402e+05
5.198299999999999699e+00 3.436650850293686963e+05
5.216899999999999871e+00 3.452609613974438398e+05
5.235599999999999810e+00 3.469446272402600734e+05
5.254199999999999982e+00 3.487032354746422498e+05
5.272800000000000153e+00 3.505509880742345122e+05
5.291500000000000092e+00 3.524757922498281114e+05
5.310100000000000264e+00 3.544493372953029466e+05
5.328700000000000436e+00 3.564581912668484147e+05
5.347400000000000375e+00 3.584664344915214460e+05
5.365999999999999659e+00 3.604656519328662544e+05
5.384599999999999831e+00 3.624321661041746847e+05
5.403299999999999770e+00 3.643826771765219164e+05
5.421899999999999942e+00 3.663438341073037009e+05
5.440500000000000114e+00 3.683582656224301900e+05
5.459200000000000053e+00 3.705080059052272700e+05
5.477800000000000225e+00 3.728698416687779245e+05
5.496400000000000396e+00 3.755370637878058478e+05
5.515100000000000335e+00 3.785798828938250081e+05
5.533699999999999619e+00 3.820507458785814233e+05
5.552299999999999791e+00 3.859788632655378897e+05
5.570999999999999730e+00 3.903564614267350989e+05
5.589599999999999902e+00 3.951432853758002748e+05
5.608200000000000074e+00 4.002794666390494094e+05
5.626800000000000246e+00 4.056828779545403086e+05
5.645500000000000185e+00 4.112942974010945181e+05
5.664100000000000357e+00 4.170053821591695887e+05
5.682699999999999640e+00 4.227639714093317743e+05
5.701399999999999579e+00 4.285019307260003989e+05
5.719999999999999751e+00 4.341795383933021803e+05
5.738599999999999923e+00 4.397753827153911698e+05
5.757299999999999862e+00 4.452986296835378744e+05
5.775900000000000034e+00 4.507495842130592209e+05
5.794500000000000206e+00 4.561735205492110108e+05
5.813200000000000145e+00 4.616056764537256095e+05
5.831800000000000317e+00 4.670835054952739738e+05
5.850399999999999601e+00 4.726364211448392016e+05
5.869100000000000428e+00 4.783054024822139181e+05
5.887699999999999712e+00 4.840503147546341643e+05
5.906299999999999883e+00 4.898613651842650142e+05
5.924999999999999822e+00 4.956667039635825786e+05
5.943599999999999994e+00 5.013797253052899614e+05
5.962200000000000166e+00 5.068988300867297221e+05
5.980900000000000105e+00 5.121368225563338492e+05
5.999500000000000277e+00 5.169723800951035810e+05
6.018099999999999561e+00 5.213702758309103665e+05
6.036699999999999733e+00 5.253040260857578833e+05
6.055399999999999672e+00 5.288084077604756458e+05
6.073999999999999844e+00 5.319160772207217524e+05
6.092600000000000016e+00 5.347401502661020495e+05
6.111299999999999955e+00 5.374086967795044184e+05
6.129900000000000126e+00 5.400299913049548632e+05
6.148500000000000298e+00 5.427202883404990425e+05
6.167200000000000237e+00 5.455643249981551198e+05
6.185800000000000409e+00 5.485982129464430036e+05
6.204399999999999693e+00 5.518491052357737208e+05
6.223099999999999632e+00 5.552969087844890309e+05
6.241699999999999804e+00 5.588737194098114269e+05
6.260299999999999976e+00 5.625115465787708526e+05
6.278999999999999915e+00 5.661426749586177757e+05
6.297600000000000087e+00 5.696718830780315911e+05
6.316200000000000259e+00 5.730375286089129513e+05
6.334900000000000198e+00 5.762084350785178831e+05
6.353500000000000369e+00 5.791695467253238894e+05
6.372099999999999653e+00 5.819211441200426780e+05
6.390799999999999592e+00 5.845191025271923281e+05
6.409399999999999764e+00 5.869829289210573770e+05
6.427999999999999936e+00 5.893968738551693968e+05
6.446699999999999875e+00 5.918039593946681125e+05
6.465300000000000047e+00 5.942272538044418907e+05
6.483900000000000219e+00 5.966640334259717492e+05
6.502500000000000391e+00 5.991289416389822727e+05
6.521200000000000330e+00 6.015589703929363750e+05
6.539799999999999613e+00 6.039004054800051963e+05
6.558399999999999785e+00 6.060922434238935821e+05
6.577099999999999724e+00 6.080755223234239966e+05
6.595699999999999896e+00 6.097973401516509475e+05
6.614300000000000068e+00 6.112305832186945481e+05
6.633000000000000007e+00 6.123454448904418387e+05
6.651600000000000179e+00 6.131303423955761828e+05
6.670200000000000351e+00 6.136130924770656275e+05
6.688900000000000290e+00 6.138158541064426536e+05
6.707499999999999574e+00 6.137576727511276258e+05
6.726099999999999746e+00 6.134809154961652821e+05
6.744799999999999685e+00 6.130137205213365378e+05
6.763399999999999856e+00 6.123861656701060710e+05
6.782000000000000028e+00 6.116363272116252920e+05
6.800699999999999967e+00 6.108015307957154000e+05
6.819300000000000139e+00 6.099141249348801794e+05
6.837900000000000311e+00 6.090246219835219672e+05
6.856600000000000250e+00 6.081785169373165118e+05
6.875200000000000422e+00 6.074190827674415195e+05
6.893799999999999706e+00 6.067867613599607721e+05
6.912499999999999645e+00 6.063088140192212304e+05
6.931099999999999817e+00 6.059921793394252891e+05
6.949699999999999989e+00 6.058216952030442189e+05
6.968300000000000161e+00 6.057406777700937819e+05
6.987000000000000099e+00 6.056897180886776187e+05
7.005600000000000271e+00 6.055972910572401015e+05
7.024200000000000443e+00 6.053595115568161709e+05
7.042900000000000382e+00 6.049431498749192106e+05
7.061499999999999666e+00 6.042996705015146872e+05
7.080099999999999838e+00 6.034510609224900836e+05
7.098799999999999777e+00 6.024267176961632213e+05
7.117399999999999949e+00 6.012985527561026393e+05
7.136000000000000121e+00 6.002084444314168068e+05
7.154700000000000060e+00 5.992745393450668780e+05
7.173300000000000232e+00 5.986047461361150490e+05
7.191900000000000404e+00 5.983286024745873874e+05
7.210600000000000342e+00 5.985052949584926246e+05
7.229199999999999626e+00 5.991780748893044656e+05
7.247799999999999798e+00 6.003273605293601286e+05
7.266499999999999737e+00 6.019336000632778741e+05
7.285099999999999909e+00 6.038847318807207048e+05
7.303700000000000081e+00 6.060773261658032425e+05
7.322400000000000020e+00 6.084149578728020424e+05
7.341000000000000192e+00 6.107515542307047872e+05
7.359600000000000364e+00 6.129800284571297234e+05
7.378199999999999648e+00 6.150231370406993665e+05
7.396899999999999586e+00 6.168041889322223142e+05
7.415499999999999758e+00 6.182838968018516898e+05
